time,"P(A)","P(B)","P(CLK)","P(ROUT)"
0.000000e+00,0.000000e+00,-0.000000e+00,0.000000e+00,0.000000e+00
2.500000e-14,6.301073e-04,1.065544e-03,4.847669e-04,1.398926e-05
5.000000e-14,1.287732e-03,2.147894e-03,9.878051e-04,4.654719e-05
7.500000e-14,1.990382e-03,3.252693e-03,1.520594e-03,9.916258e-05
1.000000e-13,2.756325e-03,4.385394e-03,2.095201e-03,1.723526e-04
1.250000e-13,3.603874e-03,5.551430e-03,2.723880e-03,2.663730e-04
1.500000e-13,4.550983e-03,6.756237e-03,3.418857e-03,3.814546e-04
1.750000e-13,5.615015e-03,8.005237e-03,4.192218e-03,5.178812e-04
2.000000e-13,6.812570e-03,9.303813e-03,5.055834e-03,6.760136e-04
2.250000e-13,8.159361e-03,1.065728e-02,6.021310e-03,8.562950e-04
2.500000e-13,9.670101e-03,1.207087e-02,7.099934e-03,1.059250e-03
2.750000e-13,1.135842e-02,1.354969e-02,8.302636e-03,1.285482e-03
3.000000e-13,1.323677e-02,1.509872e-02,9.639953e-03,1.535668e-03
3.250000e-13,1.531641e-02,1.672277e-02,1.112199e-02,1.810555e-03
3.500000e-13,1.760729e-02,1.842647e-02,1.275837e-02,2.110953e-03
3.750000e-13,2.011807e-02,2.021424e-02,1.455823e-02,2.437730e-03
4.000000e-13,2.285609e-02,2.209031e-02,1.653017e-02,2.791810e-03
4.250000e-13,2.582736e-02,2.405862e-02,1.868223e-02,3.174160e-03
4.500000e-13,2.903655e-02,2.612290e-02,2.102186e-02,3.585789e-03
4.750000e-13,3.248704e-02,2.828657e-02,2.355588e-02,4.027742e-03
5.000000e-13,3.618095e-02,3.055280e-02,2.629050e-02,4.501089e-03
5.250000e-13,4.011917e-02,3.292445e-02,2.923127e-02,5.006924e-03
5.500000e-13,4.430142e-02,3.540405e-02,3.238305e-02,5.546356e-03
5.750000e-13,4.872632e-02,3.799385e-02,3.575003e-02,6.120501e-03
6.000000e-13,5.339143e-02,4.069574e-02,3.933569e-02,6.730479e-03
6.250000e-13,5.829339e-02,4.351130e-02,4.314280e-02,7.377404e-03
6.500000e-13,6.342793e-02,4.644176e-02,4.717342e-02,8.062382e-03
6.750000e-13,6.878999e-02,4.948802e-02,5.142887e-02,8.786500e-03
7.000000e-13,7.437382e-02,5.265063e-02,5.590976e-02,9.550823e-03
7.250000e-13,8.017303e-02,5.592979e-02,6.061596e-02,1.035639e-02
7.500000e-13,8.618069e-02,5.932537e-02,6.554661e-02,1.120420e-02
7.750000e-13,9.238944e-02,6.283691e-02,7.070016e-02,1.209521e-02
8.000000e-13,9.879151e-02,6.646358e-02,7.607430e-02,1.303035e-02
8.250000e-13,1.053789e-01,7.020426e-02,8.166605e-02,1.401049e-02
8.500000e-13,1.121432e-01,7.405747e-02,8.747172e-02,1.503643e-02
8.750000e-13,1.190761e-01,7.802144e-02,9.348696e-02,1.610894e-02
9.000000e-13,1.261689e-01,8.209407e-02,9.970673e-02,1.722871e-02
9.250000e-13,1.334131e-01,8.627299e-02,1.061254e-01,1.839635e-02
9.500000e-13,1.407999e-01,9.055552e-02,1.127366e-01,1.961245e-02
9.750000e-13,1.483207e-01,9.493872e-02,1.195335e-01,2.087747e-02
1.000000e-12,1.559669e-01,9.941939e-02,1.265086e-01,2.219183e-02
1.025000e-12,1.637299e-01,1.039941e-01,1.336539e-01,2.355587e-02
1.050000e-12,1.716011e-01,1.086591e-01,1.409609e-01,2.496985e-02
1.075000e-12,1.795722e-01,1.134106e-01,1.484206e-01,2.643393e-02
1.100000e-12,1.876346e-01,1.182445e-01,1.560235e-01,2.794822e-02
1.125000e-12,1.957800e-01,1.231564e-01,1.637598e-01,2.951274e-02
1.150000e-12,2.040002e-01,1.281420e-01,1.716191e-01,3.112741e-02
1.175000e-12,2.122867e-01,1.331967e-01,1.795909e-01,3.279210e-02
1.200000e-12,2.206313e-01,1.383158e-01,1.876644e-01,3.450658e-02
1.225000e-12,2.290256e-01,1.434946e-01,1.958283e-01,3.627055e-02
1.250000e-12,2.374613e-01,1.487280e-01,2.040713e-01,3.808361e-02
1.275000e-12,2.459300e-01,1.540111e-01,2.123819e-01,3.994532e-02
1.300000e-12,2.544231e-01,1.593391e-01,2.207485e-01,4.185515e-02
1.325000e-12,2.629320e-01,1.647067e-01,2.291593e-01,4.381248e-02
1.350000e-12,2.714481e-01,1.701090e-01,2.376025e-01,4.581666e-02
1.375000e-12,2.799626e-01,1.755410e-01,2.460664e-01,4.786694e-02
1.400000e-12,2.884666e-01,1.809976e-01,2.545394e-01,4.996252e-02
1.425000e-12,2.969511e-01,1.864740e-01,2.630098e-01,5.210255e-02
1.450000e-12,3.054070e-01,1.919652e-01,2.714663e-01,5.428612e-02
1.475000e-12,3.138251e-01,1.974663e-01,2.798976e-01,5.651226e-02
1.500000e-12,3.221963e-01,2.029729e-01,2.882928e-01,5.877996e-02
1.525000e-12,3.305114e-01,2.084801e-01,2.966411e-01,6.108817e-02
1.550000e-12,3.387611e-01,2.139837e-01,3.049324e-01,6.343581e-02
1.575000e-12,3.469365e-01,2.194792e-01,3.131565e-01,6.582174e-02
1.600000e-12,3.550285e-01,2.249626e-01,3.213039e-01,6.824481e-02
1.625000e-12,3.630285e-01,2.304299e-01,3.293656e-01,7.070386e-02
1.650000e-12,3.709277e-01,2.358773e-01,3.373329e-01,7.319767e-02
1.675000e-12,3.787181e-01,2.413012e-01,3.451978e-01,7.572505e-02
1.700000e-12,3.863917e-01,2.466983e-01,3.529526e-01,7.828478e-02
1.725000e-12,3.939412e-01,2.520655e-01,3.605906e-01,8.087562e-02
1.750000e-12,4.013597e-01,2.573998e-01,3.681053e-01,8.349636e-02
1.775000e-12,4.086409e-01,2.626985e-01,3.754910e-01,8.614578e-02
1.800000e-12,4.157791e-01,2.679592e-01,3.827427e-01,8.882265e-02
1.825000e-12,4.227695e-01,2.731797e-01,3.898560e-01,9.152579e-02
1.850000e-12,4.296078e-01,2.783581e-01,3.968272e-01,9.425402e-02
1.875000e-12,4.362907e-01,2.834927e-01,4.036532e-01,9.700617e-02
1.900000e-12,4.428158e-01,2.885821e-01,4.103317e-01,9.978112e-02
1.925000e-12,4.491816e-01,2.936251e-01,4.168612e-01,1.025777e-01
1.950000e-12,4.553874e-01,2.986208e-01,4.232405e-01,1.053950e-01
1.975000e-12,4.614338e-01,3.035686e-01,4.294696e-01,1.082318e-01
2.000000e-12,4.673219e-01,3.084680e-01,4.355488e-01,1.110873e-01
2.025000e-12,4.730543e-01,3.133191e-01,4.414793e-01,1.139603e-01
2.050000e-12,4.786342e-01,3.181218e-01,4.472628e-01,1.168501e-01
2.075000e-12,4.840661e-01,3.228766e-01,4.529017e-01,1.197558e-01
2.100000e-12,4.893552e-01,3.275840e-01,4.583990e-01,1.226765e-01
2.125000e-12,4.945076e-01,3.322450e-01,4.637583e-01,1.256115e-01
2.150000e-12,4.995306e-01,3.368605e-01,4.689839e-01,1.285601e-01
2.175000e-12,5.044318e-01,3.414319e-01,4.740804e-01,1.315216e-01
2.200000e-12,5.092199e-01,3.459607e-01,4.790530e-01,1.344955e-01
2.225000e-12,5.139042e-01,3.504486e-01,4.839074e-01,1.374812e-01
2.250000e-12,5.184946e-01,3.548974e-01,4.886498e-01,1.404782e-01
2.275000e-12,5.230014e-01,3.593092e-01,4.932866e-01,1.434861e-01
2.300000e-12,5.274355e-01,3.636863e-01,4.978248e-01,1.465045e-01
2.325000e-12,5.318080e-01,3.680310e-01,5.022714e-01,1.495331e-01
2.350000e-12,5.361303e-01,3.723460e-01,5.066341e-01,1.525716e-01
2.375000e-12,5.404138e-01,3.766338e-01,5.109204e-01,1.556198e-01
2.400000e-12,5.446702e-01,3.808972e-01,5.151382e-01,1.586777e-01
2.425000e-12,5.489109e-01,3.851392e-01,5.192957e-01,1.617450e-01
2.450000e-12,5.531473e-01,3.893628e-01,5.234009e-01,1.648217e-01
2.475000e-12,5.573905e-01,3.935709e-01,5.274621e-01,1.679078e-01
2.500000e-12,5.616514e-01,3.977667e-01,5.314874e-01,1.710034e-01
2.525000e-12,5.659404e-01,4.019535e-01,5.354851e-01,1.741086e-01
2.550000e-12,5.702675e-01,4.061343e-01,5.394634e-01,1.772235e-01
2.575000e-12,5.746421e-01,4.103124e-01,5.434304e-01,1.803482e-01
2.600000e-12,5.790731e-01,4.144912e-01,5.473939e-01,1.834830e-01
2.625000e-12,5.835689e-01,4.186737e-01,5.513617e-01,1.866281e-01
2.650000e-12,5.881370e-01,4.228633e-01,5.553414e-01,1.897838e-01
2.675000e-12,5.927845e-01,4.270631e-01,5.593404e-01,1.929505e-01
2.700000e-12,5.975175e-01,4.312762e-01,5.633658e-01,1.961283e-01
2.725000e-12,6.023417e-01,4.355059e-01,5.674243e-01,1.993178e-01
2.750000e-12,6.072619e-01,4.397550e-01,5.715225e-01,2.025192e-01
2.775000e-12,6.122824e-01,4.440265e-01,5.756666e-01,2.057330e-01
2.800000e-12,6.174066e-01,4.483232e-01,5.798624e-01,2.089596e-01
2.825000e-12,6.226376e-01,4.526480e-01,5.841154e-01,2.121994e-01
2.850000e-12,6.279775e-01,4.570034e-01,5.884307e-01,2.154527e-01
2.875000e-12,6.334282e-01,4.613920e-01,5.928132e-01,2.187202e-01
2.900000e-12,6.389908e-01,4.658162e-01,5.972670e-01,2.220021e-01
2.925000e-12,6.446661e-01,4.702781e-01,6.017963e-01,2.252990e-01
2.950000e-12,6.504545e-01,4.747800e-01,6.064045e-01,2.286112e-01
2.975000e-12,6.563559e-01,4.793237e-01,6.110949e-01,2.319392e-01
3.000000e-12,6.623699e-01,4.839111e-01,6.158702e-01,2.352834e-01
3.025000e-12,6.684959e-01,4.885437e-01,6.207328e-01,2.386441e-01
3.050000e-12,6.747331e-01,4.932232e-01,6.256848e-01,2.420219e-01
3.075000e-12,6.810805e-01,4.979506e-01,6.307279e-01,2.454171e-01
3.100000e-12,6.875370e-01,5.027273e-01,6.358633e-01,2.488299e-01
3.125000e-12,6.941013e-01,5.075541e-01,6.410919e-01,2.522608e-01
3.150000e-12,7.007723e-01,5.124318e-01,6.464145e-01,2.557101e-01
3.175000e-12,7.075485e-01,5.173610e-01,6.518313e-01,2.591781e-01
3.200000e-12,7.144286e-01,5.223420e-01,6.573423e-01,2.626650e-01
3.225000e-12,7.214115e-01,5.273752e-01,6.629472e-01,2.661710e-01
3.250000e-12,7.284958e-01,5.324606e-01,6.686456e-01,2.696965e-01
3.275000e-12,7.356803e-01,5.375981e-01,6.744365e-01,2.732416e-01
3.300000e-12,7.429637e-01,5.427874e-01,6.803191e-01,2.768063e-01
3.325000e-12,7.503449e-01,5.480280e-01,6.862921e-01,2.803910e-01
3.350000e-12,7.578224e-01,5.533194e-01,6.923541e-01,2.839956e-01
3.375000e-12,7.653952e-01,5.586608e-01,6.985035e-01,2.876203e-01
3.400000e-12,7.730617e-01,5.640511e-01,7.047386e-01,2.912650e-01
3.425000e-12,7.808207e-01,5.694895e-01,7.110576e-01,2.949298e-01
3.450000e-12,7.886703e-01,5.749746e-01,7.174585e-01,2.986147e-01
3.475000e-12,7.966090e-01,5.805051e-01,7.239394e-01,3.023196e-01
3.500000e-12,8.046348e-01,5.860795e-01,7.304979e-01,3.060444e-01
3.525000e-12,8.127453e-01,5.916963e-01,7.371321e-01,3.097891e-01
3.550000e-12,8.209382e-01,5.973538e-01,7.438397e-01,3.135535e-01
3.575000e-12,8.292105e-01,6.030501e-01,7.506185e-01,3.173374e-01
3.600000e-12,8.375591e-01,6.087834e-01,7.574662e-01,3.211406e-01
3.625000e-12,8.459805e-01,6.145516e-01,7.643806e-01,3.249630e-01
3.650000e-12,8.544705e-01,6.203528e-01,7.713594e-01,3.288043e-01
3.675000e-12,8.630249e-01,6.261849e-01,7.784006e-01,3.326643e-01
3.700000e-12,8.716387e-01,6.320456e-01,7.855019e-01,3.365426e-01
3.725000e-12,8.803066e-01,6.379327e-01,7.926613e-01,3.404391e-01
3.750000e-12,8.890228e-01,6.438440e-01,7.998767e-01,3.443533e-01
3.775000e-12,8.977811e-01,6.497773e-01,8.071460e-01,3.482849e-01
3.800000e-12,9.065750e-01,6.557302e-01,8.144675e-01,3.522337e-01
3.825000e-12,9.153972e-01,6.617004e-01,8.218392e-01,3.561993e-01
3.850000e-12,9.242405e-01,6.676857e-01,8.292595e-01,3.601812e-01
3.875000e-12,9.330970e-01,6.736838e-01,8.367265e-01,3.641792e-01
3.900000e-12,9.419588e-01,6.796923e-01,8.442388e-01,3.681928e-01
3.925000e-12,9.508176e-01,6.857091e-01,8.517947e-01,3.722217e-01
3.950000e-12,9.596650e-01,6.917320e-01,8.593929e-01,3.762655e-01
3.975000e-12,9.684925e-01,6.977589e-01,8.670320e-01,3.803238e-01
4.000000e-12,9.772915e-01,7.037876e-01,8.747106e-01,3.843962e-01
4.025000e-12,9.860536e-01,7.098161e-01,8.824278e-01,3.884823e-01
4.050000e-12,9.947704e-01,7.158426e-01,8.901822e-01,3.925818e-01
4.075000e-12,1.003434e+00,7.218650e-01,8.979728e-01,3.966942e-01
4.100000e-12,1.012036e+00,7.278816e-01,9.057987e-01,4.008192e-01
4.125000e-12,1.020569e+00,7.338908e-01,9.136590e-01,4.049565e-01
4.150000e-12,1.029026e+00,7.398908e-01,9.215528e-01,4.091056e-01
4.175000e-12,1.037401e+00,7.458803e-01,9.294792e-01,4.132662e-01
4.200000e-12,1.045688e+00,7.518578e-01,9.374375e-01,4.174380e-01
4.225000e-12,1.053880e+00,7.578220e-01,9.454270e-01,4.216207e-01
4.250000e-12,1.061975e+00,7.637717e-01,9.534470e-01,4.258139e-01
4.275000e-12,1.069967e+00,7.697059e-01,9.614968e-01,4.300174e-01
4.300000e-12,1.077855e+00,7.756237e-01,9.695759e-01,4.342308e-01
4.325000e-12,1.085635e+00,7.815242e-01,9.776835e-01,4.384539e-01
4.350000e-12,1.093306e+00,7.874067e-01,9.858190e-01,4.426865e-01
4.375000e-12,1.100868e+00,7.932707e-01,9.939820e-01,4.469283e-01
4.400000e-12,1.108322e+00,7.991157e-01,1.002172e+00,4.511791e-01
4.425000e-12,1.115668e+00,8.049414e-01,1.010387e+00,4.554386e-01
4.450000e-12,1.122909e+00,8.107476e-01,1.018629e+00,4.597068e-01
4.475000e-12,1.130048e+00,8.165343e-01,1.026895e+00,4.639835e-01
4.500000e-12,1.137089e+00,8.223014e-01,1.035185e+00,4.682684e-01
4.525000e-12,1.144037e+00,8.280492e-01,1.043499e+00,4.725615e-01
4.550000e-12,1.150896e+00,8.337780e-01,1.051836e+00,4.768626e-01
4.575000e-12,1.157673e+00,8.394881e-01,1.060195e+00,4.811717e-01
4.600000e-12,1.164375e+00,8.451800e-01,1.068575e+00,4.854886e-01
4.625000e-12,1.171008e+00,8.508545e-01,1.076976e+00,4.898134e-01
4.650000e-12,1.177581e+00,8.565122e-01,1.085396e+00,4.941459e-01
4.675000e-12,1.184101e+00,8.621541e-01,1.093835e+00,4.984862e-01
4.700000e-12,1.190577e+00,8.677809e-01,1.102292e+00,5.028341e-01
4.725000e-12,1.197018e+00,8.733938e-01,1.110766e+00,5.071898e-01
4.750000e-12,1.203431e+00,8.789938e-01,1.119256e+00,5.115532e-01
4.775000e-12,1.209826e+00,8.845822e-01,1.127761e+00,5.159243e-01
4.800000e-12,1.216212e+00,8.901603e-01,1.136280e+00,5.203031e-01
4.825000e-12,1.222596e+00,8.957293e-01,1.144812e+00,5.246898e-01
4.850000e-12,1.228988e+00,9.012907e-01,1.153356e+00,5.290844e-01
4.875000e-12,1.235396e+00,9.068460e-01,1.161910e+00,5.334869e-01
4.900000e-12,1.241828e+00,9.123968e-01,1.170475e+00,5.378974e-01
4.925000e-12,1.248290e+00,9.179445e-01,1.179048e+00,5.423160e-01
4.950000e-12,1.254790e+00,9.234908e-01,1.187630e+00,5.467428e-01
4.975000e-12,1.261336e+00,9.290373e-01,1.196217e+00,5.511779e-01
5.000000e-12,1.267931e+00,9.345858e-01,1.204811e+00,5.556213e-01
5.025000e-12,1.273954e+00,9.390724e-01,1.212925e+00,5.600593e-01
5.050000e-12,1.280010e+00,9.435475e-01,1.221024e+00,5.644872e-01
5.075000e-12,1.286086e+00,9.480073e-01,1.229097e+00,5.689038e-01
5.100000e-12,1.292169e+00,9.524479e-01,1.237130e+00,5.733087e-01
5.125000e-12,1.298243e+00,9.568657e-01,1.245111e+00,5.777016e-01
5.150000e-12,1.304293e+00,9.612569e-01,1.253026e+00,5.820825e-01
5.175000e-12,1.310303e+00,9.656178e-01,1.260862e+00,5.864512e-01
5.200000e-12,1.316258e+00,9.699445e-01,1.268607e+00,5.908074e-01
5.225000e-12,1.322144e+00,9.742332e-01,1.276248e+00,5.951509e-01
5.250000e-12,1.327946e+00,9.784804e-01,1.283773e+00,5.994811e-01
5.275000e-12,1.333649e+00,9.826822e-01,1.291171e+00,6.037976e-01
5.300000e-12,1.339241e+00,9.868350e-01,1.298430e+00,6.080998e-01
5.325000e-12,1.344710e+00,9.909352e-01,1.305538e+00,6.123870e-01
5.350000e-12,1.350043e+00,9.949794e-01,1.312486e+00,6.166586e-01
5.375000e-12,1.355230e+00,9.989643e-01,1.319263e+00,6.209136e-01
5.400000e-12,1.360261e+00,1.002886e+00,1.325858e+00,6.251513e-01
5.425000e-12,1.365128e+00,1.006743e+00,1.332264e+00,6.293707e-01
5.450000e-12,1.369823e+00,1.010530e+00,1.338471e+00,6.335708e-01
5.475000e-12,1.374340e+00,1.014246e+00,1.344471e+00,6.377507e-01
5.500000e-12,1.378673e+00,1.017887e+00,1.350256e+00,6.419092e-01
5.525000e-12,1.382818e+00,1.021451e+00,1.355818e+00,6.460454e-01
5.550000e-12,1.386772e+00,1.024936e+00,1.361151e+00,6.501580e-01
5.575000e-12,1.390534e+00,1.028339e+00,1.366249e+00,6.542459e-01
5.600000e-12,1.394101e+00,1.031658e+00,1.371105e+00,6.583080e-01
5.625000e-12,1.397474e+00,1.034892e+00,1.375716e+00,6.623430e-01
5.650000e-12,1.400653e+00,1.038038e+00,1.380076e+00,6.663499e-01
5.675000e-12,1.403641e+00,1.041096e+00,1.384181e+00,6.703275e-01
5.700000e-12,1.406440e+00,1.044063e+00,1.388027e+00,6.742745e-01
5.725000e-12,1.409052e+00,1.046939e+00,1.391613e+00,6.781898e-01
5.750000e-12,1.411482e+00,1.049723e+00,1.394935e+00,6.820723e-01
5.775000e-12,1.413734e+00,1.052414e+00,1.397992e+00,6.859209e-01
5.800000e-12,1.415812e+00,1.055012e+00,1.400782e+00,6.897345e-01
5.825000e-12,1.417721e+00,1.057515e+00,1.403305e+00,6.935120e-01
5.850000e-12,1.419466e+00,1.059925e+00,1.405561e+00,6.972524e-01
5.875000e-12,1.421053e+00,1.062241e+00,1.407549e+00,7.009547e-01
5.900000e-12,1.422487e+00,1.064463e+00,1.409272e+00,7.046181e-01
5.925000e-12,1.423773e+00,1.066592e+00,1.410730e+00,7.082416e-01
5.950000e-12,1.424917e+00,1.068629e+00,1.411925e+00,7.118244e-01
5.975000e-12,1.425923e+00,1.070574e+00,1.412860e+00,7.153658e-01
6.000000e-12,1.426798e+00,1.072428e+00,1.413537e+00,7.188650e-01
6.025000e-12,1.427545e+00,1.074192e+00,1.413962e+00,7.223215e-01
6.050000e-12,1.428169e+00,1.075868e+00,1.414136e+00,7.257346e-01
6.075000e-12,1.428674e+00,1.077457e+00,1.414065e+00,7.291038e-01
6.100000e-12,1.429064e+00,1.078961e+00,1.413755e+00,7.324287e-01
6.125000e-12,1.429344e+00,1.080381e+00,1.413209e+00,7.357091e-01
6.150000e-12,1.429516e+00,1.081720e+00,1.412435e+00,7.389444e-01
6.175000e-12,1.429584e+00,1.082979e+00,1.411438e+00,7.421346e-01
6.200000e-12,1.429550e+00,1.084161e+00,1.410226e+00,7.452796e-01
6.225000e-12,1.429418e+00,1.085268e+00,1.408805e+00,7.483791e-01
6.250000e-12,1.429191e+00,1.086302e+00,1.407184e+00,7.514334e-01
6.275000e-12,1.428870e+00,1.087266e+00,1.405370e+00,7.544423e-01
6.300000e-12,1.428459e+00,1.088162e+00,1.403371e+00,7.574062e-01
6.325000e-12,1.427960e+00,1.088993e+00,1.401198e+00,7.603252e-01
6.350000e-12,1.427376e+00,1.089763e+00,1.398859e+00,7.631996e-01
6.375000e-12,1.426709e+00,1.090473e+00,1.396363e+00,7.660297e-01
6.400000e-12,1.425963e+00,1.091126e+00,1.393720e+00,7.688161e-01
6.425000e-12,1.425142e+00,1.091727e+00,1.390942e+00,7.715592e-01
6.450000e-12,1.424248e+00,1.092276e+00,1.388037e+00,7.742596e-01
6.475000e-12,1.423286e+00,1.092779e+00,1.385017e+00,7.769178e-01
6.500000e-12,1.422259e+00,1.093237e+00,1.381893e+00,7.795346e-01
6.525000e-12,1.421174e+00,1.093654e+00,1.378676e+00,7.821107e-01
6.550000e-12,1.420035e+00,1.094032e+00,1.375378e+00,7.846468e-01
6.575000e-12,1.418848e+00,1.094376e+00,1.372010e+00,7.871439e-01
6.600000e-12,1.417618e+00,1.094687e+00,1.368583e+00,7.896026e-01
6.625000e-12,1.416354e+00,1.094970e+00,1.365110e+00,7.920241e-01
6.650000e-12,1.415062e+00,1.095226e+00,1.361602e+00,7.944091e-01
6.675000e-12,1.413749e+00,1.095460e+00,1.358072e+00,7.967587e-01
6.700000e-12,1.412424e+00,1.095674e+00,1.354531e+00,7.990738e-01
6.725000e-12,1.411095e+00,1.095871e+00,1.350991e+00,8.013555e-01
6.750000e-12,1.409771e+00,1.096053e+00,1.347463e+00,8.036048e-01
6.775000e-12,1.408461e+00,1.096225e+00,1.343960e+00,8.058228e-01
6.800000e-12,1.407173e+00,1.096388e+00,1.340493e+00,8.080105e-01
6.825000e-12,1.405918e+00,1.096545e+00,1.337074e+00,8.101691e-01
6.850000e-12,1.404705e+00,1.096698e+00,1.333712e+00,8.122995e-01
6.875000e-12,1.403543e+00,1.096851e+00,1.330420e+00,8.144028e-01
6.900000e-12,1.402440e+00,1.097006e+00,1.327208e+00,8.164802e-01
6.925000e-12,1.401407e+00,1.097165e+00,1.324086e+00,8.185326e-01
6.950000e-12,1.400450e+00,1.097330e+00,1.321064e+00,8.205611e-01
6.975000e-12,1.399580e+00,1.097504e+00,1.318151e+00,8.225668e-01
7.000000e-12,1.398803e+00,1.097688e+00,1.315356e+00,8.245507e-01
7.025000e-12,1.398126e+00,1.097884e+00,1.312688e+00,8.265137e-01
7.050000e-12,1.397556e+00,1.098095e+00,1.310155e+00,8.284568e-01
7.075000e-12,1.397098e+00,1.098321e+00,1.307764e+00,8.303809e-01
7.100000e-12,1.396757e+00,1.098565e+00,1.305523e+00,8.322870e-01
7.125000e-12,1.396537e+00,1.098828e+00,1.303437e+00,8.341758e-01
7.150000e-12,1.396441e+00,1.099110e+00,1.301513e+00,8.360484e-01
7.175000e-12,1.396472e+00,1.099415e+00,1.299755e+00,8.379053e-01
7.200000e-12,1.396629e+00,1.099741e+00,1.298169e+00,8.397474e-01
7.225000e-12,1.396914e+00,1.100091e+00,1.296757e+00,8.415754e-01
7.250000e-12,1.397325e+00,1.100466e+00,1.295524e+00,8.433900e-01
7.275000e-12,1.397860e+00,1.100865e+00,1.294472e+00,8.451917e-01
7.300000e-12,1.398517e+00,1.101289e+00,1.293603e+00,8.469812e-01
7.325000e-12,1.399293e+00,1.101740e+00,1.292918e+00,8.487590e-01
7.350000e-12,1.400181e+00,1.102217e+00,1.292418e+00,8.505256e-01
7.375000e-12,1.401178e+00,1.102720e+00,1.292103e+00,8.522814e-01
7.400000e-12,1.402276e+00,1.103249e+00,1.291972e+00,8.540268e-01
7.425000e-12,1.403470e+00,1.103805e+00,1.292025e+00,8.557621e-01
7.450000e-12,1.404751e+00,1.104388e+00,1.292259e+00,8.574877e-01
7.475000e-12,1.406112e+00,1.104996e+00,1.292673e+00,8.592038e-01
7.500000e-12,1.407544e+00,1.105630e+00,1.293262e+00,8.609106e-01
7.525000e-12,1.409040e+00,1.106288e+00,1.294025e+00,8.626082e-01
7.550000e-12,1.410591e+00,1.106972e+00,1.294956e+00,8.642969e-01
7.575000e-12,1.412187e+00,1.107679e+00,1.296052e+00,8.659766e-01
7.600000e-12,1.413820e+00,1.108410e+00,1.297308e+00,8.676474e-01
7.625000e-12,1.415482e+00,1.109162e+00,1.298718e+00,8.693094e-01
7.650000e-12,1.417164e+00,1.109936e+00,1.300277e+00,8.709624e-01
